time,temperature,voltage
0.0,16.8,0.0
100.33444816053512,20.119939323570904,10.0
200.66889632107024,23.32782419074804,10.0
301.0033444816054,26.42743665896498,10.0
401.33779264214047,29.42243113380733,10.0
501.67224080267556,32.31633867751269,10.0
602.0066889632108,34.98902695245614,9.627872055621554
702.3411371237459,34.976466567279594,1.8113430719499204
802.6755852842809,35.020968527244534,1.9819438029094159
903.010033444816,34.99303935320939,1.7682980137766142
1003.3444816053511,35.0032754196732,1.8804162561006859
1103.6789297658863,34.99840881680505,1.8359661002494652
1204.0133779264215,35.0007154691197,1.8570779252514398
1304.3478260869565,34.99967124703002,1.8472192499846705
1404.6822742474917,35.00015187143557,1.8517060848594602
1505.0167224080267,34.999930234546945,1.849639663723371
1605.3511705685619,35.00003208306087,1.8505915025750581
1705.685618729097,34.99998523753976,1.8501539751566485
1806.020066889632,35.000006790060475,1.8503552345990575
1906.3545150501673,34.999996876754494,1.850262647404232
2006.6889632107022,35.000001436682915,1.8503052344503288
2107.0234113712377,34.999999339147074,1.8502856450629699
2207.3578595317726,35.000000303982645,1.8502946559971298
2307.6923076923076,34.999999860171854,1.8502905110982835
2408.026755852843,35.00000006431907,1.8502924176949305
2508.361204013378,34.9999999704141,1.850291540685491
2608.695652173913,35.00000001360912,1.8502919440979988
2709.030100334448,34.99999999373999,1.8502917585336798
2809.3645484949834,35.00000000287952,1.8502918438907665
2909.6989966555184,34.99999999867546,1.8502918046276802
3010.0334448160534,35.00000000060927,1.8502918226881473
3110.367892976589,34.99999999971975,1.8502918143805827
3210.7023411371238,35.00000000012891,1.8502918182019277
3311.0367892976587,34.999999999940705,1.8502918164442086
3411.371237458194,35.00000000002727,1.8502918172527147
3511.705685618729,34.99999999998746,1.8502918168808429
3612.040133779264,35.00000000000577,1.8502918170518654
3712.3745819397996,34.99999999999734,1.8502918169732008
3812.7090301003345,35.00000000000122,1.8502918170094116
3913.0434782608695,34.999999999999446,1.850291816992746
4013.3779264214045,35.000000000000256,1.8502918170003573
4113.71237458194,34.99999999999988,1.8502918169968743
4214.046822742475,35.00000000000006,1.8502918169985
4314.38127090301,34.99999999999997,1.8502918169977338
4414.715719063545,35.000000000000014,1.8502918169981057
4515.050167224081,34.99999999999999,1.85029181699792
4615.384615384615,35.0,1.850291816998013
4715.719063545151,35.0,1.8502918169979905
4816.053511705686,35.0,1.850291816997991
4916.387959866221,35.0,1.850291816997991
5016.722408026756,35.0,1.850291816997991
5117.056856187291,35.0,1.850291816997991
5217.391304347826,35.0,1.850291816997991
5317.725752508361,35.0,1.850291816997991
5418.060200668896,35.0,1.850291816997991
5518.394648829431,35.0,1.850291816997991
5618.729096989967,35.0,1.850291816997991
5719.063545150501,35.0,1.850291816997991
5819.397993311037,35.0,1.850291816997991
5919.732441471572,35.0,1.850291816997991
6020.066889632107,35.0,1.850291816997991
6120.401337792642,35.0,1.850291816997991
6220.735785953178,35.0,1.850291816997991
6321.070234113712,35.0,1.850291816997991
6421.4046822742475,35.0,1.850291816997991
6521.739130434783,35.0,1.850291816997991
6622.0735785953175,35.0,1.850291816997991
6722.408026755853,35.0,1.850291816997991
6822.742474916388,35.0,1.850291816997991
6923.076923076923,35.0,1.850291816997991
7023.411371237458,35.0,1.850291816997991
7123.745819397994,35.0,1.850291816997991
7224.080267558528,35.0,1.850291816997991
7324.414715719064,35.0,1.850291816997991
7424.749163879599,35.0,1.850291816997991
7525.083612040134,35.0,1.850291816997991
7625.418060200669,35.0,1.850291816997991
7725.7525083612045,35.0,1.850291816997991
7826.086956521739,35.0,1.850291816997991
7926.421404682274,35.0,1.850291816997991
8026.755852842809,35.0,1.850291816997991
8127.090301003344,35.0,1.850291816997991
8227.42474916388,35.0,1.850291816997991
8327.759197324414,35.0,1.850291816997991
8428.09364548495,35.0,1.850291816997991
8528.428093645485,35.0,1.850291816997991
8628.76254180602,35.0,1.850291816997991
8729.096989966556,35.0,1.850291816997991
8829.43143812709,35.0,1.850291816997991
8929.765886287625,35.0,1.850291816997991
9030.100334448161,35.0,1.850291816997991
9130.434782608696,35.0,1.850291816997991
9230.76923076923,35.0,1.850291816997991
9331.103678929767,35.0,1.850291816997991
9431.438127090301,35.0,1.850291816997991
9531.772575250836,35.0,1.850291816997991
9632.107023411372,35.0,1.850291816997991
9732.441471571907,35.0,1.850291816997991
9832.775919732441,35.0,1.850291816997991
9933.110367892976,35.0,1.850291816997991
10033.444816053512,35.0,1.850291816997991
10133.779264214047,35.0,1.850291816997991
10234.113712374581,35.0,1.850291816997991
10334.448160535117,35.0,1.850291816997991
10434.782608695652,35.0,1.850291816997991
10535.117056856187,35.0,1.850291816997991
10635.451505016723,35.0,1.850291816997991
10735.785953177257,35.0,1.850291816997991
10836.120401337792,35.0,1.850291816997991
10936.454849498328,35.0,1.850291816997991
11036.789297658863,35.0,1.850291816997991
11137.123745819397,35.0,1.850291816997991
11237.458193979934,35.0,1.850291816997991
11337.792642140468,35.0,1.850291816997991
11438.127090301003,35.0,1.850291816997991
11538.461538461539,35.0,1.850291816997991
11638.795986622074,35.0,1.850291816997991
11739.130434782608,35.0,1.850291816997991
11839.464882943144,35.0,1.850291816997991
11939.799331103679,35.0,1.850291816997991
12040.133779264213,35.0,1.850291816997991
12140.46822742475,35.0,1.850291816997991
12240.802675585284,35.0,1.850291816997991
12341.137123745819,35.0,1.850291816997991
12441.471571906355,35.0,1.850291816997991
12541.80602006689,35.0,1.850291816997991
12642.140468227424,35.0,1.850291816997991
12742.47491638796,35.0,1.850291816997991
12842.809364548495,35.0,1.850291816997991
12943.14381270903,35.0,1.850291816997991
13043.478260869566,35.0,1.850291816997991
13143.8127090301,35.0,1.850291816997991
13244.147157190635,35.0,1.850291816997991
13344.481605351171,35.0,1.850291816997991
13444.816053511706,35.0,1.850291816997991
13545.15050167224,35.0,1.850291816997991
13645.484949832777,35.0,1.850291816997991
13745.819397993311,35.0,1.850291816997991
13846.153846153846,35.0,1.850291816997991
13946.488294314382,35.0,1.850291816997991
14046.822742474917,35.0,1.850291816997991
14147.157190635451,35.0,1.850291816997991
14247.491638795987,35.0,1.850291816997991
14347.826086956522,35.0,1.850291816997991
14448.160535117056,35.0,1.850291816997991
14548.494983277593,35.0,1.850291816997991
14648.829431438127,35.0,1.850291816997991
14749.163879598662,35.0,1.850291816997991
14849.498327759198,35.0,1.850291816997991
14949.832775919733,35.0,1.850291816997991
15050.167224080267,35.0,1.850291816997991
15150.501672240804,35.0,1.850291816997991
15250.836120401338,35.0,1.850291816997991
15351.170568561873,35.0,1.850291816997991
15451.505016722409,35.0,1.850291816997991
15551.839464882944,35.0,1.850291816997991
15652.173913043478,35.0,1.850291816997991
15752.508361204014,35.0,1.850291816997991
15852.842809364549,35.0,1.850291816997991
15953.177257525083,35.0,1.850291816997991
16053.511705685618,35.0,1.850291816997991
16153.846153846154,35.0,1.850291816997991
16254.180602006689,35.0,1.850291816997991
16354.515050167223,35.0,1.850291816997991
16454.84949832776,35.0,1.850291816997991
16555.183946488294,35.0,1.850291816997991
16655.51839464883,35.0,1.850291816997991
16755.852842809363,35.0,1.850291816997991
16856.1872909699,35.0,1.850291816997991
16956.521739130436,35.0,1.850291816997991
17056.85618729097,35.0,1.850291816997991
17157.190635451505,35.0,1.850291816997991
17257.52508361204,35.0,1.850291816997991
17357.859531772574,35.0,1.850291816997991
17458.193979933112,35.0,1.850291816997991
17558.528428093647,35.0,1.850291816997991
17658.86287625418,35.0,1.850291816997991
17759.197324414716,35.0,1.850291816997991
17859.53177257525,35.0,1.850291816997991
17959.866220735785,35.0,1.850291816997991
18060.200668896323,35.0,1.850291816997991
18160.535117056857,35.0,1.850291816997991
18260.869565217392,35.0,1.850291816997991
18361.204013377926,35.0,1.850291816997991
18461.53846153846,35.0,1.850291816997991
18561.872909698995,35.0,1.850291816997991
18662.207357859534,35.0,1.850291816997991
18762.541806020068,35.0,1.850291816997991
18862.876254180603,35.0,1.850291816997991
18963.210702341137,35.0,1.850291816997991
19063.54515050167,35.0,1.850291816997991
19163.879598662206,35.0,1.850291816997991
19264.214046822744,35.0,1.850291816997991
19364.54849498328,35.0,1.850291816997991
19464.882943143813,35.0,1.850291816997991
19565.217391304348,35.0,1.850291816997991
19665.551839464883,35.0,1.850291816997991
19765.886287625417,35.0,1.850291816997991
19866.22073578595,35.0,1.850291816997991
19966.55518394649,35.0,1.850291816997991
20066.889632107024,35.0,1.850291816997991
20167.22408026756,35.0,1.850291816997991
20267.558528428093,35.0,1.850291816997991
20367.892976588628,35.0,1.850291816997991
20468.227424749162,35.0,1.850291816997991
20568.5618729097,35.0,1.850291816997991
20668.896321070235,35.0,1.850291816997991
20769.23076923077,35.0,1.850291816997991
20869.565217391304,35.0,1.850291816997991
20969.89966555184,35.0,1.850291816997991
21070.234113712373,35.0,1.850291816997991
21170.56856187291,35.0,1.850291816997991
21270.903010033446,35.0,1.850291816997991
21371.23745819398,35.0,1.850291816997991
21471.571906354515,35.0,1.850291816997991
21571.90635451505,35.0,1.850291816997991
21672.240802675584,35.0,1.850291816997991
21772.575250836122,35.0,1.850291816997991
21872.909698996657,35.0,1.850291816997991
21973.24414715719,35.0,1.850291816997991
22073.578595317726,35.0,1.850291816997991
22173.91304347826,35.0,1.850291816997991
22274.247491638795,35.0,1.850291816997991
22374.581939799333,35.0,1.850291816997991
22474.916387959867,35.0,1.850291816997991
22575.2508361204,35.0,1.850291816997991
22675.585284280936,35.0,1.850291816997991
22775.91973244147,35.0,1.850291816997991
22876.254180602005,35.0,1.850291816997991
22976.588628762544,35.0,1.850291816997991
23076.923076923078,35.0,1.850291816997991
23177.257525083613,35.0,1.850291816997991
23277.591973244147,35.0,1.850291816997991
23377.92642140468,35.0,1.850291816997991
23478.260869565216,35.0,1.850291816997991
23578.595317725754,35.0,1.850291816997991
23678.92976588629,35.0,1.850291816997991
23779.264214046823,35.0,1.850291816997991
23879.598662207358,35.0,1.850291816997991
23979.933110367892,35.0,1.850291816997991
24080.267558528427,35.0,1.850291816997991
24180.602006688965,35.0,1.850291816997991
24280.9364548495,35.0,1.850291816997991
24381.270903010034,35.0,1.850291816997991
24481.60535117057,35.0,1.850291816997991
24581.939799331103,35.0,1.850291816997991
24682.274247491638,35.0,1.850291816997991
24782.608695652176,35.0,1.850291816997991
24882.94314381271,35.0,1.850291816997991
24983.277591973245,35.0,1.850291816997991
25083.61204013378,35.0,1.850291816997991
25183.946488294314,35.0,1.850291816997991
25284.28093645485,35.0,1.850291816997991
25384.615384615387,35.0,1.850291816997991
25484.94983277592,35.0,1.850291816997991
25585.284280936456,35.0,1.850291816997991
25685.61872909699,35.0,1.850291816997991
25785.953177257525,35.0,1.850291816997991
25886.28762541806,35.0,1.850291816997991
25986.622073578594,35.0,1.850291816997991
26086.956521739132,35.0,1.850291816997991
26187.290969899666,35.0,1.850291816997991
26287.6254180602,35.0,1.850291816997991
26387.959866220735,35.0,1.850291816997991
26488.29431438127,35.0,1.850291816997991
26588.628762541804,35.0,1.850291816997991
26688.963210702343,35.0,1.850291816997991
26789.297658862877,35.0,1.850291816997991
26889.63210702341,35.0,1.850291816997991
26989.966555183946,35.0,1.850291816997991
27090.30100334448,35.0,1.850291816997991
27190.635451505015,35.0,1.850291816997991
27290.969899665553,35.0,1.850291816997991
27391.304347826088,35.0,1.850291816997991
27491.638795986622,35.0,1.850291816997991
27591.973244147157,35.0,1.850291816997991
27692.30769230769,35.0,1.850291816997991
27792.642140468226,35.0,1.850291816997991
27892.976588628764,35.0,1.850291816997991
27993.3110367893,35.0,1.850291816997991
28093.645484949833,35.0,1.850291816997991
28193.979933110368,35.0,1.850291816997991
28294.314381270902,35.0,1.850291816997991
28394.648829431437,35.0,1.850291816997991
28494.983277591975,35.0,1.850291816997991
28595.31772575251,35.0,1.850291816997991
28695.652173913044,35.0,1.850291816997991
28795.98662207358,35.0,1.850291816997991
28896.321070234113,35.0,1.850291816997991
28996.655518394648,35.0,1.850291816997991
29096.989966555186,35.0,1.850291816997991
29197.32441471572,35.0,1.850291816997991
29297.658862876255,35.0,1.850291816997991
29397.99331103679,35.0,1.850291816997991
29498.327759197324,35.0,1.850291816997991
29598.66220735786,35.0,1.850291816997991
29698.996655518396,35.0,1.850291816997991
29799.33110367893,35.0,1.850291816997991
29899.665551839465,35.0,1.850291816997991
30000.0,35.0,1.850291816997991
